l.p,U[v],I[mA]
1,0.15,0.55
2,0.25,0.54
3,0.39,0.55
4,0.5,0.53
5,0.63,0.52
6,0.77,0.5
7,0.9,0.5
8,1.1,0.48
9,1.15,0.45
10,1.25,0.44
11,1.3,0.43
12,1.37,0.4
13,1.4,0.37
14,1.46,0.35
15,1.48,0.33
16,1.5,0.3
17,1.5,0.26
18,1.5,0.22
